# ID        RA           DEC
    1       14.7577     -31.9322
    2       13.8659     -33.0858
    3       12.5783     -33.9486
    4       11.0187     -34.4304
    5       9.34961     -34.4798
    6       7.75052     -34.0913
    7       6.39009     -33.3067
    8       5.31167     -32.0583
    9       4.83932     -30.7415
   10       4.85626     -29.3644
   11       5.34158     -28.0547
   12       6.23637     -26.9293
   13       7.45291     -26.0858
   14       8.88300     -25.5960
   15       10.4058     -25.5009
   16       12.5840     -26.1046
   17       13.7930     -26.9569
   18       14.6776     -28.0888
   19       15.1507     -29.4020
   20       15.1542     -30.7791
   21       12.4955     -31.6166
   22       11.4697     -32.3720
   23       10.1535     -32.6813
   24       8.80656     -32.4831
   25       7.69637     -31.8169
   26       7.04709     -30.8508
   27       6.92358     -29.7037
   28       7.36128     -28.6168
   29       8.26644     -27.7856
   30       9.47228     -27.3557
   31       10.7687     -27.4015
   32       11.3896     -27.6074
   33       12.4064     -28.3291
   34       13.0001     -29.3572
   35       13.0517     -30.5084
   36       17.7070     -33.8447
   37       16.5661     -35.1937
   38       15.0605     -36.2937
   39       13.2611     -37.0819
   40       11.2658     -37.5110
   41       9.19322     -37.5545
   42       7.17002     -37.2098
   43       5.31765     -36.4981
   44       3.73951     -35.4625
   45       2.37449     -33.9671
   46       1.60479     -32.4543
   47       1.25669     -30.8371
   48       1.32506     -29.1940
   49       1.78701     -27.6008
   50       2.60614     -26.1280
   51       3.73579     -24.8382
   52       5.12143     -23.7852
   53       6.70251     -23.0121
   54       8.41394     -22.5501
   55       10.1876     -22.4177
   56       11.9539     -22.6204
   57       14.0950     -23.3549
   58       15.5879     -24.2702
   59       16.8550     -25.4456
   60       17.8384     -26.8327
   61       18.4872     -28.3730
   62       18.7595     -29.9999
   63       18.6251     -31.6400
   64       16.2571     -32.9912
   65       15.2035     -34.2418
   66       13.7785     -35.2228
   67       12.0735     -35.8625
   68       10.2110     -36.1123
   69       8.33219     -35.9530
   70       6.58063     -35.3968
   71       5.08421     -34.4863
   72       4.17583     -33.5932
   73       3.34865     -32.2325
   74       2.96353     -30.7405
   75       3.02410     -29.2138
   76       3.50707     -27.7463
   77       4.36812     -26.4249
   78       5.54681     -25.3253
   79       6.97069     -24.5091
   80       8.55864     -24.0213
   81       10.2239     -23.8884
   82       11.8773     -24.1177
   83       13.4483     -24.7063
   84       14.8114     -25.6072
   85       15.9080     -26.7757
   86       16.6686     -28.1462
   87       17.0369     -29.6394
   88       16.9739     -31.1661
   89       21.3983     -33.4067
   90       20.5877     -35.1028
   91       19.3880     -36.6457
   92       17.8208     -37.9770
   93       15.9292     -39.0423
   94       13.7793     -39.7955
   95       11.4587     -40.2023
   96       9.07084     -40.2434
   97       6.72590     -39.9170
   98       4.52973     -39.2384
   99       2.57411     -38.2389
  100      0.930209     -36.9624
  101       359.224     -34.7827
  102       358.490     -33.0637
  103       358.148     -31.2633
  104       358.185     -29.4399
  105       358.581     -27.6498
  106       359.307     -25.9451
  107      0.329750     -24.3739
  108       1.61260     -22.9792
  109       3.11553     -21.7982
  110       4.79588     -20.8625
  111       6.60870     -20.1965
  112       8.50716     -19.8178
  113       10.4432     -19.7364
  114       12.3680     -19.9544
  115       14.9257     -20.7389
  116       16.6300     -21.6336
  117       18.1638     -22.7777
  118       19.4841     -24.1411
  119       20.5505     -25.6872
  120       21.3255     -27.3738
  121       21.7755     -29.1538
  122       21.8713     -30.9756
  123       21.5902     -32.7835
  124       19.9362     -32.9278
  125       19.1468     -34.5399
  126       17.9616     -35.9868
  127       16.4118     -37.2039
  128       14.5526     -38.1336
  129       12.4647     -38.7292
  130       10.2495     -38.9598
  131       8.02125     -38.8129
  132       5.89560     -38.2965
  133       3.97776     -37.4376
  134       2.35335     -36.2797
  135      0.740448     -34.3591
  136       359.998     -32.7322
  137       359.661     -31.0153
  138       359.719     -29.2754
  139      0.150691     -27.5767
  140      0.924153     -25.9789
  141       2.00103     -24.5362
  142       3.33747     -23.2963
  143       4.88529     -22.2995
  144       6.59281     -21.5776
  145       8.40560     -21.1536
  146       10.2674     -21.0411
  147       12.1209     -21.2436
  148       14.5770     -22.0344
  149       16.1823     -22.9454
  150       17.5926     -24.1106
  151       18.7585     -25.4925
  152       19.6347     -27.0457
  153       20.1807     -28.7181
  154       20.3627     -30.4515
  155       20.1552     -32.1830
  156       24.2626     -34.0382
  157       23.4771     -35.8924
  158       22.3114     -37.6187
  159       20.7719     -39.1669
  160       18.8813     -40.4877
  161       16.6818     -41.5357
  162       14.2373     -42.2722
  163       11.6311     -42.6685
  164       8.96131     -42.7086
  165       6.33210     -42.3907
  166       3.84371     -41.7278
  167       1.58347     -40.7460
  168       359.620     -39.4822
  169       357.999     -37.9805
  170       357.572     -37.4741
  171       356.439     -35.7346
  172       355.687     -33.8716
  173       355.307     -31.9349
  174       355.286     -29.9722
  175       355.602     -28.0290
  176       356.230     -26.1476
  177       357.144     -24.3675
  178       358.316     -22.7247
  179       359.715     -21.2518
  180       1.31015     -19.9777
  181       3.06856     -18.9273
  182       4.95585     -18.1210
  183       6.93633     -17.5746
  184       8.97321     -17.2988
  185       11.0289     -17.2989
  186       13.0658     -17.5750
  187       15.3021     -18.2139
  188       17.1742     -19.0537
  189       18.9128     -20.1353
  190       20.4837     -21.4374
  191       21.8543     -22.9347
  192       22.9933     -24.5978
  193       23.8710     -26.3935
  194       24.4591     -28.2855
  195       24.7312     -30.2338
  196       24.6632     -32.1957
  197       22.8392     -33.7730
  198       22.0317     -35.5498
  199       20.8400     -37.1861
  200       19.2774     -38.6278
  201       17.3763     -39.8234
  202       15.1901     -40.7271
  203       12.7943     -41.3021
  204       10.2823     -41.5238
  205       7.75832     -41.3826
  206       5.32803     -40.8846
  207       3.08800     -40.0513
  208       1.11800     -38.9169
  209       359.477     -37.5257
  210       358.919     -36.9065
  211       357.796     -35.2411
  212       357.057     -33.4449
  213       356.700     -31.5721
  214       356.710     -29.6752
  215       357.067     -27.8043
  216       357.745     -26.0061
  217       358.713     -24.3238
  218       359.941     -22.7967
  219       1.39293     -21.4595
  220       3.03404     -20.3424
  221       4.82578     -19.4705
  222       6.72838     -18.8634
  223       8.70068     -18.5346
  224       10.7006     -18.4916
  225       12.6856     -18.7351
  226       15.1623     -19.4658
  227       16.9549     -20.3360
  228       18.5971     -21.4516
  229       20.0508     -22.7874
  230       21.2799     -24.3135
  231       22.2501     -25.9949
  232       22.9294     -27.7924
  233       23.2884     -29.6630
  234       23.3011     -31.5599
  235       27.0575     -34.2988
  236       26.3574     -36.2966
  237       25.2865     -38.1916
  238       23.8391     -39.9394
  239       22.0216     -41.4952
  240       19.8563     -42.8148
  241       17.3848     -43.8573
  242       14.6702     -44.5877
  243       11.7952     -44.9800
  244       8.85699     -45.0196
  245       5.95909     -44.7050
  246       3.20098     -44.0479
  247      0.669199     -43.0721
  248       358.431     -41.8109
  249       356.534     -40.3039
  250       355.068     -38.6812
  251       353.896     -36.8216
  252       353.096     -34.8473
  253       352.658     -32.8015
  254       352.564     -30.7252
  255       352.794     -28.6569
  256       353.324     -26.6328
  257       354.131     -24.6864
  258       355.192     -22.8491
  259       356.481     -21.1497
  260       357.975     -19.6143
  261       359.647     -18.2666
  262       1.47121     -17.1274
  263       3.41965     -16.2143
  264       5.46363     -15.5416
  265       7.57334     -15.1199
  266       9.71818     -14.9557
  267       11.8671     -15.0518
  268       13.9890     -15.4066
  269       15.3348     -15.7720
  270       17.3453     -16.5390
  271       19.2491     -17.5412
  272       21.0178     -18.7631
  273       22.6241     -20.1859
  274       24.0420     -21.7876
  275       25.2460     -23.5435
  276       26.2116     -25.4264
  277       26.9147     -27.4066
  278       27.3315     -29.4519
  279       27.4388     -31.5277
  280       27.2146     -33.5970
  281       25.6692     -34.2112
  282       24.9204     -36.1391
  283       23.7958     -37.9517
  284       22.2953     -39.6020
  285       20.4332     -41.0429
  286       18.2412     -42.2295
  287       15.7720     -43.1217
  288       13.0988     -43.6875
  289       10.3127     -43.9053
  290       7.51500     -43.7666
  291       4.80834     -43.2769
  292       2.28667     -42.4548
  293     0.0276878     -41.3305
  294       358.089     -39.9425
  295       356.506     -38.3348
  296       356.291     -38.0654
  297       355.142     -36.2619
  298       354.369     -34.3401
  299       353.962     -32.3462
  300       353.906     -30.3240
  301       354.179     -28.3154
  302       354.758     -26.3592
  303       355.618     -24.4917
  304       356.734     -22.7464
  305       358.079     -21.1538
  306       359.624     -19.7415
  307       1.34178     -18.5339
  308       3.20150     -17.5517
  309       5.17204     -16.8119
  310       7.22097     -16.3274
  311       9.31492     -16.1067
  312       11.4200     -16.1535
  313       13.5020     -16.4671
  314       15.3565     -16.9827
  315       17.3010     -17.7878
  316       19.1262     -18.8312
  317       20.8013     -20.0950
  318       22.2965     -21.5573
  319       23.5834     -23.1930
  320       24.6345     -24.9736
  321       25.4233     -26.8678
  322       25.9241     -28.8415
  323       26.1125     -30.8576
  324       25.9656     -32.8765
  325       29.1952     -36.3661
  326       28.2618     -38.4127
  327       26.9555     -40.3412
  328       25.2697     -42.1107
  329       23.2092     -43.6794
  330       20.7955     -45.0058
  331       18.0698     -46.0513
  332       15.0956     -46.7827
  333       11.9571     -47.1752
  334       8.75394     -47.2148
  335       5.59203     -46.9000
  336       2.57333     -46.2423
  337       359.786     -45.2641
  338       357.299     -43.9970
  339       355.157     -42.4787
  340       353.387     -40.7503
  341       351.532     -38.0314
  342       350.668     -35.9668
  343       350.159     -33.8304
  344       349.986     -31.6585
  345       350.126     -29.4851
  346       350.559     -27.3418
  347       351.262     -25.2581
  348       352.214     -23.2617
  349       353.393     -21.3783
  350       354.781     -19.6317
  351       356.354     -18.0440
  352       358.093     -16.6352
  353       359.974     -15.4233
  354       1.97549     -14.4241
  355       4.07283     -13.6504
  356       6.24103     -13.1126
  357       8.45421     -12.8178
  358       10.6859     -12.7700
  359       12.9094     -12.9698
  360       15.0980     -13.4146
  361       17.2181     -14.0955
  362       19.2598     -15.0083
  363       21.1908     -16.1391
  364       22.9876     -17.4733
  365       24.6279     -18.9936
  366       26.0901     -20.6809
  367       27.3531     -22.5138
  368       28.3962     -24.4692
  369       29.1985     -26.5220
  370       29.7388     -28.6455
  371       29.9956     -30.8109
  372       29.9469     -32.9873
  373       28.4254     -34.3069
  374       27.7838     -36.3707
  375       26.7772     -38.3437
  376       25.3951     -40.1843
  377       23.6369     -41.8497
  378       21.5159     -43.2967
  379       19.0634     -44.4839
  380       16.3315     -45.3743
  381       13.3940     -45.9378
  382       10.3423     -46.1546
  383       7.27891     -46.0166
  384       4.30751     -45.5289
  385       1.52280     -44.7089
  386       359.003     -43.5848
  387       356.805     -42.1922
  388       354.964     -40.5717
  389       353.895     -39.3214
  390       352.694     -37.4119
  391       351.864     -35.3904
  392       351.392     -33.2973
  393       351.259     -31.1712
  394       351.444     -29.0482
  395       351.925     -26.9620
  396       352.680     -24.9440
  397       353.686     -23.0235
  398       354.920     -21.2276
  399       356.361     -19.5814
  400       357.985     -18.1078
  401       359.768     -16.8272
  402       1.68575     -15.7577
  403       3.71279     -14.9142
  404       5.82220     -14.3089
  405       7.98634     -13.9504
  406       10.1768     -13.8440
  407       12.3650     -13.9912
  408       14.5222     -14.3899
  409       17.3155     -15.3080
  410       19.2911     -16.2665
  411       21.1446     -17.4440
  412       22.8509     -18.8237
  413       24.3857     -20.3866
  414       25.7258     -22.1108
  415       26.8484     -23.9724
  416       27.7312     -25.9454
  417       28.3515     -28.0014
  418       28.6871     -30.1101
  419       28.7155     -32.2390
  420       31.9563     -36.1381
  421       31.1899     -38.3183
  422       30.0610     -40.4072
  423       28.5528     -42.3681
  424       26.6564     -44.1623
  425       24.3746     -45.7493
  426       21.7274     -47.0894
  427       18.7557     -48.1446
  428       15.5244     -48.8824
  429       12.1210     -49.2782
  430       8.64966     -49.3182
  431       5.22169     -49.0008
  432       1.94383     -48.3373
  433       358.908     -47.3502
  434       356.184     -46.0704
  435       353.819     -44.5348
  436       351.836     -42.7833
  437       349.315     -39.3516
  438       348.374     -37.2115
  439       347.785     -34.9981
  440       347.527     -32.7444
  441       347.578     -30.4809
  442       347.914     -28.2360
  443       348.515     -26.0363
  444       349.362     -23.9063
  445       350.434     -21.8693
  446       351.714     -19.9471
  447       353.185     -18.1600
  448       354.827     -16.5270
  449       356.625     -15.0658
  450       358.557     -13.7923
  451      0.606120     -12.7206
  452       2.75042     -11.8629
  453       4.96866     -11.2290
  454       7.23837     -10.8263
  455       9.53639     -10.6595
  456       11.8392     -10.7306
  457       14.1231     -11.0388
  458       16.3648     -11.5805
  459       16.8421     -11.7279
  460       19.0018     -12.5446
  461       21.0699     -13.5774
  462       23.0258     -14.8144
  463       24.8496     -16.2419
  464       26.5224     -17.8442
  465       28.0262     -19.6040
  466       29.3432     -21.5026
  467       30.4556     -23.5199
  468       31.3454     -25.6343
  469       31.9937     -27.8229
  470       32.3809     -30.0613
  471       32.4860     -32.3234
  472       32.2871     -34.5812
  473       30.5873     -36.2873
  474       29.7345     -38.4029
  475       28.5131     -40.4142
  476       26.9111     -42.2823
  477       24.9260     -43.9667
  478       22.5697     -45.4265
  479       19.8726     -46.6220
  480       16.8872     -47.5175
  481       13.6887     -48.0838
  482       10.3719     -48.3015
  483       7.04292     -48.1629
  484       3.80939     -47.6729
  485      0.769284     -46.8484
  486       358.003     -45.7168
  487       355.567     -44.3125
  488       353.498     -42.6746
  489       351.810     -40.8438
  490       350.407     -38.6784
  491       349.506     -36.5745
  492       348.958     -34.3981
  493       348.743     -32.1838
  494       348.838     -29.9637
  495       349.222     -27.7677
  496       349.874     -25.6237
  497       350.773     -23.5577
  498       351.899     -21.5943
  499       353.232     -19.7560
  500       354.754     -18.0643
  501       356.446     -16.5385
  502       358.287     -15.1967
  503      0.256111     -14.0546
  504       2.33253     -13.1260
  505       4.49325     -12.4222
  506       6.71461     -11.9520
  507       8.97222     -11.7211
  508       11.2412     -11.7326
  509       13.4964     -11.9861
  510       15.7131     -12.4787
  511       17.0588     -12.9019
  512       19.1616     -13.7674
  513       21.1638     -14.8499
  514       23.0434     -16.1363
  515       24.7796     -17.6114
  516       26.3521     -19.2577
  517       27.7414     -21.0563
  518       28.9284     -22.9863
  519       29.8938     -25.0254
  520       30.6180     -27.1497
  521       31.0807     -29.3336
  522       31.2607     -31.5498
  523       31.1364     -33.7690
  524       34.6104     -35.6433
  525       34.0300     -37.9387
  526       33.1030     -40.1672
  527       31.8063     -42.2965
  528       30.1203     -44.2913
  529       28.0328     -46.1139
  530       25.5439     -47.7249
  531       22.6712     -49.0847
  532       19.4559     -50.1554
  533       15.9647     -50.9041
  534       12.2898     -51.3058
  535       8.54224     -51.3463
  536       4.84108     -51.0242
  537       1.30023     -50.3510
  538       358.017     -49.3493
  539       355.063     -48.0507
  540       352.487     -46.4922
  541       350.309     -44.7132
  542       348.535     -42.7534
  543       347.220     -40.7713
  544       346.192     -38.5670
  545       345.518     -36.2871
  546       345.172     -33.9623
  547       345.132     -31.6207
  548       345.374     -29.2881
  549       345.876     -26.9885
  550       346.621     -24.7444
  551       347.589     -22.5769
  552       348.764     -20.5057
  553       350.131     -18.5498
  554       351.674     -16.7270
  555       353.378     -15.0541
  556       355.227     -13.5468
  557       357.207     -12.2195
  558       359.299     -11.0853
  559       1.48566     -10.1554
  560       3.74847     -9.43954
  561       6.06735     -8.94506
  562       8.42166     -8.67723
  563       10.7902     -8.63892
  564       13.1517     -8.83052
  565       15.4847     -9.25001
  566       18.5148     -10.1556
  567       20.7016     -11.0855
  568       22.7937     -12.2198
  569       24.7730     -13.5471
  570       26.6226     -15.0545
  571       28.3267     -16.7274
  572       29.8696     -18.5502
  573       31.2362     -20.5061
  574       32.4114     -22.5773
  575       33.3795     -24.7449
  576       34.1238     -26.9890
  577       34.6264     -29.2886
  578       34.8681     -31.6212
  579       34.8276     -33.9628
  580       33.2984     -35.9223
  581       32.6232     -38.1623
  582       31.5929     -40.3237
  583       30.1870     -42.3717
  584       28.3908     -44.2693
  585       26.1992     -45.9775
  586       23.6219     -47.4561
  587       20.6881     -48.6664
